Date,Open,High,Low,Close,Volume
2012-02-13,172.0,172.75,171.0,171.0,6820.0
2012-02-14,172.25,173.0,171.75,172.25,10000.0
2012-02-15,173.75,176.0,173.75,174.5,83466.0
2012-02-16,174.0,174.1,170.5,174.1,13035.0
2012-02-17,175.0,176.75,172.25,176.5,78309.0
2012-02-20,178.5,178.5,175.35,178.0,37820.0
2012-02-21,175.5,177.46,175.0,176.0,38364.0
2012-02-22,175.0,179.32,175.0,179.0,37857.0
2012-02-23,179.32,179.32,175.0,176.5,181500.0
2012-02-24,176.5,177.5,176.5,176.5,51496.0
2012-02-27,176.0,176.0,174.5,175.5,3500.0
2012-02-28,176.5,178.0,176.5,178.0,8959.0
2012-02-29,178.0,181.75,178.0,180.5,266981.0
2012-03-01,181.75,181.75,179.88,179.88,1.0
2012-03-02,182.0,183.0,179.88,181.44,12852.0
2012-03-05,182.5,182.5,178.32,180.5,6240.0
2012-03-06,177.0,177.1,177.0,177.0,53661.0
2012-03-07,178.5,179.0,175.04,179.0,3930.0
2012-03-08,180.0,181.2,178.21,178.75,83323.0
2012-03-09,180.0,180.38,178.0,179.75,8824.0
2012-03-12,178.5,181.0,177.5,178.5,16525.0
2012-03-13,178.25,178.85,178.25,178.5,41500.0
2012-03-14,179.0,180.25,179.0,179.6,10964.0
2012-03-15,179.25,180.0,179.25,180.0,8658.0
2012-03-16,178.75,180.0,177.55,178.5,23983.0
2012-03-19,176.0,179.34,175.71,176.0,11512.0
2012-03-20,176.0,176.0,173.0,173.51,34628.0
2012-03-21,173.0,176.5,173.0,176.5,4524.0
2012-03-22,173.51,174.5,172.0,174.0,20781.0
2012-03-23,173.0,175.75,171.76,173.0,996.0
2012-03-26,171.5,173.8,171.0,173.0,48713.0
2012-03-27,174.0,176.0,173.0,176.0,177722.0
2012-03-28,174.5,176.0,173.0,176.0,138722.0
2012-03-29,177.25,177.25,172.25,175.0,107811.0
2012-03-30,173.0,175.0,171.01,175.0,308284.0
2012-04-02,173.5,176.0,173.5,175.0,27249.0
2012-04-03,177.0,177.0,174.51,176.0,28380.0
2012-04-04,172.89,174.89,172.89,173.51,75172.0
2012-04-05,174.51,177.0,175.0,177.0,38200.0
2012-04-10,175.5,175.5,170.25,170.25,10674.0
2012-04-11,,,,171.2,0.0
2012-04-12,172.5,172.5,170.01,172.5,21250.0
2012-04-13,174.5,175.5,174.0,175.5,17936.0
2012-04-16,174.0,176.5,174.0,176.5,34243.0
2012-04-17,176.0,176.0,173.0,174.12,21271.0
2012-04-18,174.0,176.89,171.75,171.75,15369.0
2012-04-19,173.0,175.0,173.0,174.5,3861.0
2012-04-20,,,,171.78,0.0
2012-04-23,170.0,170.0,169.0,169.0,5813.0
2012-04-24,169.0,171.89,168.77,170.0,27768.0
2012-04-25,170.0,172.64,168.5,168.5,65025.0
2012-04-26,168.0,172.25,168.0,169.0,3976.0
2012-04-27,171.25,171.49,168.5,171.25,49798.0
2012-04-30,167.75,171.5,167.75,171.5,125371.0
2012-05-01,169.5,172.75,169.5,172.75,43071.0
2012-05-02,171.25,174.0,170.5,174.0,17822.0
2012-05-03,170.25,170.25,170.0,170.0,3935.0
2012-05-04,173.0,173.0,166.5,167.25,14475.0
2012-05-08,166.5,167.75,165.25,166.5,128510.0
2012-05-09,165.0,166.95,164.5,166.95,5000.0
2012-05-10,167.49,167.5,164.51,167.5,70.0
2012-05-11,163.25,166.0,162.01,166.0,11287.0
2012-05-14,162.0,164.0,162.0,164.0,5000.0
2012-05-15,,,,160.68,0.0
2012-05-16,160.0,160.0,156.5,156.8,18265.0
2012-05-17,157.5,158.98,156.5,156.5,8186.0
2012-05-18,152.5,155.64,152.5,155.0,37433.0
2012-05-21,156.75,156.75,154.01,156.22,19.0
2012-05-22,157.5,158.5,157.0,158.5,161466.0
2012-05-23,159.0,159.0,155.0,155.0,87.0
2012-05-24,,,,157.25,0.0
2012-05-25,157.0,158.0,156.75,157.5,54646.0
2012-05-28,159.0,159.0,158.57,159.0,5000.0
2012-05-29,160.5,163.0,160.5,163.0,13981.0
2012-05-30,161.0,161.25,160.0,161.0,134568.0
2012-05-31,161.5,163.25,161.5,163.0,147000.0
2012-06-01,161.5,161.51,160.0,160.0,21000.0
2012-06-06,160.25,162.27,158.98,159.25,6926.0
2012-06-07,159.5,163.0,158.25,158.25,19416.0
2012-06-08,162.0,162.0,157.25,157.25,2130.0
2012-06-11,159.5,161.0,161.0,161.0,40.0
2012-06-12,158.75,158.75,158.75,158.75,84.0
2012-06-13,158.75,159.0,158.5,158.5,41550.0
2012-06-14,158.0,158.0,158.0,158.0,5000.0
2012-06-15,159.0,160.25,157.95,158.0,65493.0
2012-06-18,160.25,160.25,159.0,159.19,562.0
2012-06-19,160.0,163.5,159.26,163.5,37595.0
2012-06-20,163.25,163.25,159.75,159.75,1590.0
2012-06-21,159.0,159.25,157.49,157.75,18116.0
2012-06-22,154.76,157.5,154.76,157.5,116775.0
2012-06-25,155.0,156.0,155.0,156.0,50605.0
2012-06-26,155.25,157.5,154.5,157.5,30240.0
2012-06-27,156.5,158.0,156.5,158.0,55174.0
2012-06-28,157.0,158.31,156.88,157.5,5705.0
2012-06-29,159.5,160.25,159.5,160.25,15283.0
2012-07-02,159.5,160.25,159.0,159.25,149796.0
2012-07-03,157.5,162.25,157.5,162.25,20384.0
2012-07-04,161.0,161.81,160.5,160.5,12364.0
2012-07-05,160.75,162.0,159.32,162.0,25534.0
2012-07-06,162.0,162.0,160.0,162.0,55383.0
2012-07-09,158.75,162.0,157.89,162.0,3154.0
2012-07-10,160.0,160.0,158.1,159.5,63.0
2012-07-11,159.5,162.5,159.25,162.5,42042.0
2012-07-12,159.5,159.9,156.0,156.0,6567.0
2012-07-13,156.5,158.0,156.0,157.5,52505.0
2012-07-16,,,,155.6,0.0
2012-07-17,155.54,156.1,155.31,156.0,10882.0
2012-07-18,155.0,155.0,153.25,155.0,27601.0
2012-07-19,155.25,156.48,155.0,155.0,17093.0
2012-07-20,155.25,157.0,154.06,157.0,136304.0
2012-07-23,152.75,152.25,151.5,151.5,1444.0
2012-07-24,153.25,153.5,153.25,153.5,46020.0
2012-07-25,152.0,153.74,151.62,153.25,313262.0
2012-07-26,151.25,152.75,151.25,152.25,24141.0
2012-07-27,153.0,153.9,152.22,153.5,15331.0
2012-07-30,154.5,154.75,153.5,154.75,36715.0
2012-07-31,156.5,156.5,154.5,156.5,56303.0
2012-08-01,156.0,157.48,154.89,156.75,13748.0
2012-08-02,158.0,158.0,154.5,154.5,14199.0
2012-08-03,156.75,156.75,155.12,155.75,109877.0
2012-08-06,158.25,158.25,155.94,157.5,3473.0
2012-08-07,156.0,157.98,156.0,157.5,27888.0
2012-08-08,156.0,160.0,156.0,160.0,106996.0
2012-08-09,160.0,161.5,160.0,160.75,35629.0
2012-08-10,158.75,161.0,158.5,161.0,139691.0
2012-08-13,159.25,162.0,157.0,157.0,19596.0
2012-08-14,159.0,160.5,158.15,160.5,39145.0
2012-08-15,159.0,160.75,157.0,160.0,38270.0
2012-08-16,160.75,160.75,156.0,156.0,17618.0
2012-08-17,157.5,158.38,156.25,156.5,120173.0
2012-08-20,157.0,157.01,156.1,157.0,10501.0
2012-08-21,157.0,160.0,157.0,159.5,28822.0
2012-08-22,158.0,158.74,158.0,158.0,86530.0
2012-08-23,157.5,159.05,157.5,158.0,48840.0
2012-08-24,156.0,156.0,156.0,156.0,6594.0
2012-08-28,157.5,161.0,155.0,161.0,444086.0
2012-08-29,161.0,161.0,159.75,161.0,42988.0
2012-08-30,159.0,159.5,158.0,159.0,524227.0
2012-08-31,157.5,159.5,157.0,159.5,21366.0
2012-09-03,160.0,160.0,157.0,159.5,100570.0
2012-09-04,157.0,158.65,157.0,158.5,80504.0
2012-09-05,157.0,157.5,157.0,157.5,23089.0
2012-09-06,157.25,158.5,157.0,158.5,270955.0
2012-09-07,159.12,160.0,160.0,160.0,4855.0
2012-09-10,160.0,161.0,160.0,161.0,34974.0
2012-09-11,160.0,160.45,160.0,160.0,45486.0
2012-09-12,161.0,161.51,161.0,161.25,84720.0
2012-09-13,160.0,160.51,160.0,160.5,37137.0
2012-09-14,163.0,164.5,162.0,164.25,45884.0
2012-09-17,163.75,164.25,163.75,164.25,16096.0
2012-09-18,163.25,163.5,163.0,163.5,10128.0
2012-09-19,163.5,164.5,163.5,164.5,54009.0
2012-09-20,162.0,163.0,161.38,163.0,122381.0
2012-09-21,163.0,163.5,162.0,163.5,8624.0
2012-09-24,163.25,165.5,163.0,165.5,44498.0
2012-09-25,163.5,164.0,161.5,164.0,21273.0
2012-09-26,164.0,164.0,161.0,163.5,65386.0
2012-09-27,163.25,163.75,162.5,163.5,32757.0
2012-09-28,164.0,165.5,163.13,164.5,217982.0
2012-10-01,164.0,167.0,164.0,167.0,83323.0
2012-10-02,164.75,168.0,164.75,168.0,39383.0
2012-10-03,166.0,168.24,164.45,168.0,7403.0
2012-10-04,165.5,166.39,165.42,166.39,6807.0
2012-10-05,167.0,167.25,167.0,167.0,25847.0
2012-10-08,166.0,166.25,165.46,166.0,26701.0
2012-10-09,167.0,167.25,167.0,167.25,50076.0
2012-10-10,166.0,167.69,166.0,166.0,3305.0
2012-10-11,166.0,168.0,166.0,166.0,1420.0
2012-10-12,167.5,167.55,167.42,167.51,76657.0
2012-10-15,166.0,168.25,166.0,168.25,13618.0
2012-10-16,168.25,168.7,168.25,168.25,43764.0
2012-10-17,168.5,169.0,168.5,169.0,39716.0
2012-10-18,169.25,169.75,168.25,168.25,14639.0
2012-10-19,169.5,169.5,166.61,168.25,166967.0
2012-10-22,169.75,169.75,167.0,169.0,102298.0
2012-10-23,169.75,169.75,167.5,167.5,177238.0
2012-10-24,168.0,169.12,167.75,168.0,62142.0
2012-10-25,167.5,167.6,166.75,167.5,36026.0
2012-10-26,166.0,166.0,165.1,165.1,3000.0
2012-10-29,165.75,167.0,164.72,167.0,59663.0
2012-10-30,166.5,167.1,166.25,167.1,113627.0
2012-10-31,167.0,167.5,167.0,167.5,58957.0
2012-11-01,168.0,168.5,168.0,168.0,167530.0
2012-11-02,169.5,170.25,167.26,170.0,113308.0
2012-11-05,168.75,171.25,168.75,171.0,175459.0
2012-11-06,169.75,171.75,169.75,171.5,86346.0
2012-11-07,172.0,172.5,169.5,171.0,217701.0
2012-11-08,172.5,172.5,171.0,171.25,23562.0
2012-11-09,172.25,172.25,170.0,171.0,5859.0
2012-11-12,171.0,173.29,169.11,171.25,50122.0
2012-11-13,170.0,170.0,167.75,170.0,89239.0
2012-11-14,170.0,170.5,169.0,169.0,498005.0
2012-11-15,167.75,168.75,166.5,167.5,235213.0
2012-11-16,166.5,166.5,163.5,163.5,91399.0
2012-11-19,166.5,167.56,166.0,166.75,55203.0
2012-11-20,165.75,166.81,165.75,166.0,11821.0
2012-11-21,166.0,167.0,165.75,167.0,20689.0
2012-11-22,166.0,166.75,165.5,166.25,15557.0
2012-11-23,167.0,169.25,166.25,169.25,222344.0
2012-11-26,167.0,168.25,166.75,168.25,88249.0
2012-11-27,167.0,169.5,167.0,169.0,38337.0
2012-11-28,167.25,169.0,165.42,169.0,62592.0
2012-11-29,170.0,170.0,169.75,169.75,121275.0
2012-11-30,171.0,172.0,170.25,172.0,50682.0
2012-12-03,169.25,170.59,168.5,169.5,63135.0
2012-12-04,169.5,169.75,168.18,169.0,62667.0
2012-12-05,169.5,175.75,169.5,174.25,309573.0
2012-12-06,174.75,176.0,173.48,175.25,7776.0
2012-12-07,174.0,176.3,174.0,175.0,119524.0
2012-12-10,177.0,178.5,174.62,178.5,10017.0
2012-12-11,175.0,176.75,175.0,176.5,53422.0
2012-12-12,177.0,180.39,177.0,180.0,82028.0
2012-12-13,178.25,178.75,177.0,177.0,6033.0
2012-12-14,181.0,182.0,180.5,181.5,216727.0
2012-12-17,180.75,181.55,180.25,180.25,21504.0
2012-12-18,180.25,182.5,180.25,180.5,18643.0
2012-12-19,181.25,183.72,181.25,183.5,4741.0
2012-12-20,184.0,184.0,181.0,183.0,27145.0
2012-12-21,181.75,187.0,179.0,187.0,128690.0
2012-12-24,184.0,186.5,183.5,183.5,10268.0
2012-12-27,184.0,185.99,184.0,184.25,
2012-12-28,186.75,186.75,184.0,184.5,16896.0
2012-12-31,187.0,187.0,183.85,185.9,2882.0
2013-01-02,185.5,191.25,185.5,191.25,12180.0
2013-01-03,193.75,193.75,190.15,193.0,7378.0
2013-01-04,189.72,194.25,189.72,194.25,2094.0
2013-01-07,195.75,195.75,191.38,195.75,2650.0
2013-01-08,191.59,,191.11,192.19,
2013-01-09,193.0,194.25,191.56,192.75,9892.0
2013-01-10,193.0,193.0,191.56,193.0,1940.0
2013-01-11,193.0,195.75,191.0,195.75,19154.0
2013-01-14,191.0,194.56,191.0,191.0,39476.0
2013-01-15,195.0,195.5,191.0,191.0,32971.0
2013-01-16,190.5,195.0,190.5,195.0,5914.0
2013-01-17,195.0,195.75,191.6,195.75,19029.0
2013-01-18,195.5,196.74,193.0,193.5,29262.0
2013-01-21,195.5,198.0,193.5,196.5,15907.0
2013-01-22,195.0,198.62,195.0,195.25,25767.0
2013-01-23,197.81,198.55,197.0,197.0,
2013-01-24,197.0,198.65,196.12,197.0,23611.0
2013-01-25,199.0,199.0,198.19,198.19,663.0
2013-01-28,196.69,198.56,196.69,198.56,
2013-01-29,196.81,200.5,196.41,200.5,66.0
2013-01-30,197.38,,197.38,198.62,
2013-01-31,199.0,,196.09,196.7,
2013-02-01,199.0,199.4,198.0,199.4,100780.0
2013-02-04,197.5,198.5,196.0,196.0,10608.0
2013-02-05,196.25,199.0,195.8,196.25,955.0
2013-02-06,198.25,198.5,197.01,198.5,
2013-02-07,197.5,199.25,196.1,196.1,7491.0
2013-02-08,195.0,199.0,195.0,199.0,5145.0
2013-02-11,196.0,199.25,194.95,199.25,563.0
2013-02-12,199.5,199.5,195.65,199.25,2081.0
2013-02-13,199.25,203.5,198.52,203.5,31932.0
2013-02-14,199.5,203.25,199.5,199.5,5055.0
2013-02-15,199.5,202.69,199.5,200.0,25.0
2013-02-18,200.25,203.0,200.25,202.98,1621.0
2013-02-19,199.25,202.9,199.25,200.25,141.0
2013-02-20,203.5,203.65,201.5,203.65,5421.0
2013-02-21,200.0,203.6,200.0,203.5,9508.0
2013-02-22,199.75,203.5,199.75,200.25,4367.0
2013-02-25,204.58,204.58,202.0,202.0,4392.0
2013-02-26,202.25,202.25,198.5,202.0,5274.0
2013-02-27,199.75,204.0,199.0,204.0,9658.0
2013-02-28,205.0,205.0,201.85,203.75,73.0
2013-03-01,205.75,206.0,204.25,206.0,37816.0
2013-03-04,203.75,205.75,202.01,205.75,5990.0
2013-03-05,202.38,207.0,202.38,207.0,382.0
2013-03-06,206.0,208.0,206.0,207.75,10959.0
2013-03-07,207.0,208.67,207.0,207.0,9636.0
2013-03-08,210.0,211.5,208.25,210.96,23605.0
2013-03-11,210.96,212.0,210.0,211.5,16023.0
2013-03-12,211.0,212.5,210.0,212.5,5478.0
2013-03-13,210.0,211.35,208.0,209.0,15330.0
2013-03-14,209.0,211.5,209.0,211.5,11331.0
2013-03-15,210.0,211.0,207.5,211.0,44109.0
2013-03-18,205.51,209.0,205.51,209.0,214.0
2013-03-19,205.5,209.0,205.0,205.0,10000.0
2013-03-20,208.0,208.0,202.0,202.0,55341.0
2013-03-21,201.0,202.5,199.01,199.01,18099.0
2013-03-22,199.0,201.43,199.0,199.0,10026.0
2013-03-25,199.0,202.18,194.75,194.75,133268.0
2013-03-26,198.0,201.75,198.0,199.0,32085.0
2013-03-27,199.0,203.12,199.0,200.24,40953.0
2013-03-28,199.75,200.5,198.25,200.5,18848.0
2013-04-02,200.5,200.5,198.75,200.5,5000.0
2013-04-03,201.5,202.49,198.88,199.0,69150.0
2013-04-04,200.0,202.74,200.0,202.5,40000.0
2013-04-05,202.0,202.44,199.5,200.65,0.0
2013-04-08,201.25,202.45,200.65,201.2,11590.0
2013-04-09,203.0,203.0,201.0,201.91,112090.0
2013-04-10,201.25,203.49,201.25,201.75,149434.0
2013-04-11,203.5,203.5,203.25,203.25,38.0
2013-04-12,203.25,205.75,202.5,205.75,10099.0
2013-04-15,202.0,204.8,201.5,201.5,19230.0
2013-04-16,201.5,201.68,201.5,201.58,2558.0
2013-04-17,201.5,203.0,201.5,203.0,148454.0
2013-04-18,200.51,,200.51,201.15,0.0
2013-04-19,203.0,205.0,203.0,205.0,59067.0
2013-04-22,206.0,206.0,203.25,203.76,4250.0
2013-04-23,206.0,206.0,202.46,206.0,1873.0
2013-04-24,207.0,207.0,204.21,207.0,142.0
2013-04-25,205.75,206.75,205.25,205.75,397.0
2013-04-26,205.0,206.5,205.0,205.75,3744.0
2013-04-29,205.5,206.75,205.5,205.5,0.0
2013-04-30,207.0,207.24,205.25,205.25,32240.0
2013-05-01,207.0,207.0,205.5,205.5,10934.0
2013-05-02,206.0,206.9,205.13,205.25,437.0
2013-05-03,205.0,206.4,204.5,205.0,59914.0
2013-05-07,205.5,207.0,203.63,206.0,114286.0
2013-05-08,206.5,207.0,204.25,205.2,15000.0
2013-05-09,206.75,206.75,205.55,206.25,6034.0
2013-05-10,207.0,209.0,206.5,209.0,7925.0
2013-05-13,207.0,207.0,206.6,207.0,6000.0
2013-05-14,207.5,210.0,207.13,210.0,15800.0
2013-05-15,210.0,210.2,210.0,210.2,5393.0
2013-05-16,210.65,211.74,209.6,209.63,0.0
2013-05-17,211.75,211.75,209.5,209.5,17480.0
2013-05-20,214.0,214.25,211.63,213.0,55000.0
2013-05-21,212.0,213.75,211.75,213.75,27553.0
2013-05-22,211.63,214.18,211.5,212.51,0.0
2013-05-23,208.75,,208.0,208.13,0.0
2013-05-24,208.5,208.5,208.13,208.13,15000.0
2013-05-28,208.0,210.0,208.0,208.5,3503.0
2013-05-29,210.0,212.0,209.0,209.0,26573.0
2013-05-30,209.0,212.0,209.0,212.0,18666.0
2013-05-31,212.0,212.0,207.0,207.0,6020.0
2013-06-03,206.0,209.35,204.0,207.5,50891.0
2013-06-04,208.0,208.0,205.82,206.0,4642.0
2013-06-05,205.5,206.9,203.0,203.0,38852.0
2013-06-06,205.0,205.0,201.0,205.0,32401.0
2013-06-07,200.0,203.5,200.0,201.0,3934.0
2013-06-10,202.13,204.01,201.0,201.0,15010.0
2013-06-11,200.5,201.68,197.0,197.0,22241.0
2013-06-12,197.0,198.0,193.0,193.0,42439.0
2013-06-13,191.0,192.0,188.0,191.5,30000.0
2013-06-14,193.1,195.0,192.0,192.0,266.0
2013-06-17,192.0,195.45,191.75,191.75,6928.0
2013-06-18,191.5,192.0,191.0,191.0,10007.0
2013-06-19,190.5,193.75,190.11,190.5,12.0
2013-06-20,188.5,192.99,187.13,187.13,12.0
2013-06-21,190.25,191.5,186.64,190.0,54421.0
2013-06-24,189.5,189.5,184.0,184.0,1.0
2013-06-25,185.5,185.5,184.25,184.25,22391.0
2013-06-26,186.0,187.25,184.0,187.25,32217.0
2013-06-27,187.0,192.5,187.0,192.5,276.0
2013-06-28,195.0,195.0,192.0,192.0,2884.0
2013-07-01,193.25,195.5,193.0,193.0,10017.0
2013-07-02,195.25,195.25,192.5,192.5,12.0
2013-07-03,194.5,194.5,190.5,190.5,431.0
2013-07-04,193.0,195.5,190.5,193.0,26.0
2013-07-05,194.0,196.85,194.0,194.43,76.0
2013-07-08,198.44,198.44,194.43,195.75,0.0
2013-07-09,194.5,198.5,194.5,194.75,17649.0
2013-07-10,194.5,197.0,194.5,197.0,5768.0
2013-07-11,197.0,199.01,196.81,197.25,15022.0
2013-07-12,197.5,199.0,,198.99,0.0
2013-07-15,199.99,199.99,,199.99,0.0
2013-07-16,201.0,201.0,198.11,198.11,1.0
2013-07-17,200.75,200.75,198.0,198.0,127.0
2013-07-18,201.0,201.0,200.0,200.0,1043.0
2013-07-19,199.0,199.0,197.01,197.01,1.0
2013-07-22,202.75,202.75,200.0,201.75,27543.0
2013-07-23,200.25,201.0,200.25,200.25,7518.0
2013-07-24,200.0,200.0,197.0,197.0,287.0
2013-07-25,201.75,201.75,201.75,197.01,3.0
2013-07-26,202.25,202.25,197.5,201.75,1404.0
2013-07-29,202.75,202.75,202.75,197.0,2.0
2013-07-30,202.5,202.5,202.5,200.38,3.0
2013-07-31,197.0,201.75,197.0,197.0,8495.0
2013-08-01,197.5,201.5,197.5,201.0,899.0
2013-08-02,199.13,202.75,202.75,202.75,44.0
2013-08-05,199.0,199.0,199.0,199.0,3200.0
2013-08-06,199.0,199.0,195.0,195.0,53000.0
2013-08-07,195.0,195.0,195.0,195.15,8000.0
2013-08-08,199.0,199.0,195.0,196.75,26000.0
2013-08-09,198.75,198.75,197.0,197.39,26000.0
2013-08-12,196.2,,,197.45,0.0
2013-08-13,198.0,198.0,196.5,196.5,81788.0
2013-08-14,197.0,197.0,195.5,195.5,58141.0
2013-08-15,196.5,196.5,193.5,193.5,55066.0
2013-08-16,194.0,194.25,194.0,194.25,1103.0
2013-08-19,195.25,195.25,195.25,194.99,53.0
2013-08-20,194.0,194.0,188.5,190.0,14531.0
2013-08-21,190.0,190.0,188.0,188.5,10981.0
2013-08-22,188.0,188.0,188.0,188.75,10000.0
2013-08-23,187.25,,,186.51,0.0
2013-08-27,185.5,185.5,184.0,186.0,9995.0
2013-08-28,185.0,185.0,182.75,183.99,3200.0
2013-08-29,182.5,182.5,182.0,182.0,13000.0
2013-08-30,181.0,181.0,181.0,181.0,9984.0
2013-09-02,181.0,181.0,181.0,181.5,5345.0
2013-09-03,181.8,182.0,182.0,182.0,17.0
2013-09-04,179.5,179.5,179.5,179.5,3185.0
2013-09-05,182.0,182.0,180.0,180.0,4264.0
2013-09-06,180.0,180.0,179.0,179.0,13513.0
2013-09-09,180.0,184.0,178.0,178.0,28061.0
2013-09-10,178.0,183.0,178.0,183.0,8692.0
2013-09-11,181.6,,,180.0,0.0
2013-09-12,178.0,179.0,178.0,182.0,25623.0
2013-09-13,176.25,179.5,176.0,176.0,41489.0
2013-09-16,180.0,182.0,180.0,182.0,9087.0
2013-09-17,179.45,,,181.01,0.0
2013-09-18,178.0,182.0,178.0,181.75,78420.0
2013-09-19,184.25,184.25,182.25,178.5,1377.0
2013-09-20,183.9,178.5,178.5,178.5,27213.0
2013-09-24,184.0,184.0,182.0,183.75,4787.0
2013-09-25,183.1,182.75,182.75,182.0,87.0
2013-09-26,184.0,184.0,183.0,180.01,47669.0
2013-09-27,183.0,183.0,178.0,178.0,31400.0
2013-09-30,177.3,174.5,174.5,177.5,1584.0
2013-10-01,179.0,179.0,176.0,176.0,18588.0
2013-10-02,176.0,176.0,175.0,175.0,1942.0
2013-10-03,177.0,177.0,177.0,177.0,54751.0
2013-10-04,180.49,,,178.38,0.0
2013-10-07,181.0,181.0,181.0,179.8,21.0
2013-10-08,176.81,,,177.1,0.0
2013-10-09,177.0,178.25,177.0,178.25,9976.0
2013-10-10,178.25,186.0,178.25,186.0,30394.0
2013-10-11,185.0,189.0,184.5,189.0,28817.0
2013-10-14,189.75,191.0,187.75,191.0,9224.0
2013-10-15,191.0,192.75,190.25,192.75,7368.0
2013-10-16,188.25,188.75,187.5,187.5,9316.0
2013-10-17,188.25,188.25,187.5,187.5,1365.0
2013-10-18,192.75,192.75,189.25,192.72,14754.0
2013-10-21,193.5,193.5,190.25,193.5,6033.0
2013-10-22,193.25,193.5,193.0,193.5,17618.0
2013-10-23,188.5,191.0,188.0,188.0,10627.0
2013-10-24,191.5,191.5,191.5,191.5,1395.0
2013-10-25,187.25,190.0,187.25,190.0,27246.0
2013-10-28,189.75,190.75,189.75,190.75,12272.0
2013-10-29,190.25,,,187.5,0.0
2013-10-30,190.5,190.5,190.5,190.5,8747.0
2013-10-31,189.0,189.0,189.0,189.0,3000.0
2013-11-01,188.0,189.0,187.5,188.56,14667.0
2013-11-04,185.0,188.0,185.0,185.0,51175.0
2013-11-05,189.0,189.0,189.0,186.75,90.0
2013-11-06,187.0,,,186.75,0.0
2013-11-07,185.75,185.75,184.0,184.0,6628.0
2013-11-08,183.5,,,185.73,0.0
2013-11-11,181.25,186.25,181.25,186.25,8510.0
2013-11-12,186.75,186.75,186.75,185.0,245.0
2013-11-13,182.25,183.0,182.0,182.0,8946.0
2013-11-14,186.12,,,186.1,0.0
2013-11-15,183.25,187.0,183.25,187.0,21075.0
2013-11-18,187.5,189.5,187.5,189.5,5028.0
2013-11-19,189.25,190.0,186.75,189.12,6298.0
2013-11-20,190.0,190.0,185.0,185.0,17765.0
2013-11-21,185.25,186.0,185.0,185.0,4304.0
2013-11-22,185.75,187.0,185.0,187.0,21775.0
2013-11-25,185.25,185.25,184.0,184.0,4092.0
2013-11-26,188.84,,,186.44,0.0
2013-11-27,185.75,189.5,185.75,186.5,11930.0
2013-11-28,185.75,185.75,185.5,185.5,46.0
2013-11-29,188.0,188.0,188.0,186.0,1585.0
2013-12-02,184.25,184.5,183.25,183.25,7587.0
2013-12-03,183.75,183.75,182.0,182.0,5375.0
2013-12-04,184.2,,,183.5,0.0
2013-12-05,185.0,185.0,179.5,179.5,4164.0
2013-12-06,181.0,181.5,180.0,181.0,4376.0
2013-12-09,184.0,184.0,182.0,182.75,16007.0
2013-12-10,182.5,182.75,180.25,182.0,7929.0
2013-12-11,180.0,180.75,178.75,178.75,2185.0
2013-12-12,176.5,176.5,176.5,176.5,84.0
2013-12-13,178.5,,,176.36,0.0
2013-12-16,176.0,178.75,176.0,178.75,13227.0
2013-12-17,177.0,178.0,175.0,175.0,20854.0
2013-12-18,179.5,182.25,178.75,182.0,258997.0
2013-12-19,178.0,181.25,178.0,181.25,1724.0
2013-12-20,182.0,182.0,177.75,177.75,7067.0
2013-12-23,177.5,177.5,177.0,177.0,639.0
2013-12-24,177.25,,,181.0,0.0
2013-12-27,176.0,181.25,176.0,176.25,2127.0
2013-12-30,180.0,180.0,180.0,178.96,1290.0
2013-12-31,177.75,177.75,176.0,176.0,82.0
2014-01-02,176.25,176.25,175.0,175.0,9076.0
2014-01-03,171.5,171.5,171.5,171.5,64.0
2014-01-06,175.0,175.0,172.0,172.0,285.0
2014-01-07,170.25,173.75,170.25,173.5,23402.0
2014-01-08,173.75,173.75,173.75,173.75,2343.0
2014-01-09,173.5,173.5,173.5,173.94,5000.0
2014-01-10,174.5,174.5,172.25,173.0,15071.0
2014-01-13,174.0,174.0,173.25,174.0,12324.0
2014-01-14,172.0,172.0,172.0,172.0,103.0
2014-01-15,172.25,173.75,172.25,173.56,8698.0
2014-01-16,174.0,174.5,174.0,174.5,13166.0
2014-01-17,176.75,176.75,175.5,172.37,17548.0
2014-01-20,173.25,173.25,173.0,173.0,4291.0
2014-01-21,173.0,173.25,172.5,172.5,9583.0
2014-01-22,174.5,174.5,174.5,174.3,3020.0
2014-01-23,172.75,172.75,171.5,172.5,57817.0
2014-01-24,170.0,170.0,168.0,169.56,12695.0
2014-01-27,168.25,168.25,164.75,164.75,10877.0
2014-01-28,168.5,168.5,167.0,167.0,1424.0
2014-01-29,168.25,168.5,166.0,168.0,15612.0
2014-01-30,166.25,168.0,166.25,167.71,5571.0
2014-01-31,166.5,168.25,166.5,167.0,7737.0
2014-02-03,168.0,168.0,168.0,168.0,17946.0
2014-02-04,163.0,166.75,163.0,163.0,50104.0
2014-02-05,164.0,167.5,163.0,167.5,104203.0
2014-02-06,168.0,171.0,168.0,170.5,77361.0
2014-02-07,170.25,171.25,170.25,171.0,10831.0
2014-02-10,170.25,170.25,170.25,170.25,17.0
2014-02-11,170.75,170.75,170.75,171.54,551.0
2014-02-12,174.0,175.5,172.5,175.5,11827.0
2014-02-13,170.0,171.75,169.0,170.25,14236.0
2014-02-14,170.25,171.25,170.0,170.5,6329.0
2014-02-17,172.0,172.0,168.75,168.75,1086.0
2014-02-18,168.5,168.5,168.25,168.25,2951.0
2014-02-19,168.0,169.5,168.0,169.25,12434.0
2014-02-20,167.5,170.25,167.0,170.25,22409.0
2014-02-21,168.75,170.0,168.75,169.49,40208.0
2014-02-24,170.0,170.5,169.75,170.25,11303.0
2014-02-25,171.25,171.25,168.5,170.75,9929.0
2014-02-26,170.5,170.5,170.25,170.5,14674.0
2014-02-27,171.0,171.0,170.75,170.75,6045.0
2014-02-28,169.0,170.5,169.0,169.0,15272.0
2014-03-03,166.5,169.5,165.0,166.75,33766.0
2014-03-04,166.0,169.5,166.0,169.5,10104.0
2014-03-05,169.75,169.75,169.75,167.08,112.0
2014-03-06,169.75,173.0,169.75,173.0,88272.0
2014-03-07,173.5,175.0,173.5,175.0,86244.0
2014-03-10,170.25,176.0,170.0,176.0,13924.0
2014-03-11,175.31,,,174.75,0.0
2014-03-12,173.0,173.0,172.0,171.89,6179.0
2014-03-13,172.0,172.0,172.0,172.55,540.0
2014-03-14,170.0,172.75,170.0,173.12,12341.0
2014-03-17,173.5,173.5,170.25,172.0,11353.0
2014-03-18,173.0,174.0,172.12,174.0,8367.0
2014-03-19,170.75,170.75,169.0,169.25,2398.0
2014-03-20,169.0,169.0,167.12,169.0,3070.0
2014-03-21,167.0,169.5,167.0,169.5,41440.0
2014-03-24,168.0,170.25,166.25,166.25,51629.0
2014-03-25,170.75,170.75,166.94,169.0,37.0
2014-03-26,167.0,170.0,167.0,170.0,18970.0
2014-03-27,167.25,170.69,167.25,169.25,1575.0
2014-03-28,170.0,171.12,168.25,170.62,78.0
2014-03-31,170.0,170.65,168.75,170.0,14637.0
2014-04-01,172.5,173.08,171.81,172.14,0.0
2014-04-02,173.0,174.0,173.0,173.79,2072.0
2014-04-03,173.75,175.5,173.75,175.5,20458.0
2014-04-04,175.25,178.0,175.0,178.0,7830.0
2014-04-07,177.0,178.0,174.25,178.0,3271.0
2014-04-08,174.0,178.0,173.62,178.0,6228.0
2014-04-09,172.25,175.5,172.0,174.0,36440.0
2014-04-10,172.75,177.75,172.75,175.0,7202.0
2014-04-11,172.0,174.75,171.04,171.75,38695.0
2014-04-14,170.25,174.04,170.0,170.0,12214.0
2014-04-15,170.0,173.75,170.0,170.0,21277.0
2014-04-16,170.25,173.24,170.25,173.24,0.0
2014-04-17,175.0,175.04,173.05,174.0,740.0
2014-04-22,174.0,175.0,172.85,173.75,9884.0
2014-04-23,173.0,175.25,173.0,173.0,332.0
2014-04-24,172.75,174.75,172.75,173.5,80520.0
2014-04-25,173.0,173.15,172.14,173.0,18664.0
2014-04-28,174.75,175.0,173.32,174.74,1026.0
2014-04-29,176.0,176.25,174.8,175.99,11768.0
2014-04-30,176.0,177.0,175.51,177.0,9166.0
2014-05-01,176.5,177.0,174.52,177.0,1843.0
2014-05-02,175.5,176.7,175.28,176.0,1396.0
2014-05-06,175.5,175.5,173.0,175.25,470.0
2014-05-07,175.0,175.0,172.5,172.5,1420.0
2014-05-08,175.5,175.5,172.6,175.25,441.0
2014-05-09,175.5,175.75,174.0,175.75,8611.0
2014-05-12,178.0,178.0,174.5,177.75,19675.0
2014-05-13,175.5,178.0,175.25,175.5,19431.0
2014-05-14,175.25,177.35,175.25,176.62,10415.0
2014-05-15,176.0,177.75,175.6,176.5,41908.0
2014-05-16,176.5,177.4,174.16,176.0,21097.0
2014-05-19,174.0,177.82,173.91,176.5,24348.0
2014-05-20,177.75,178.0,175.5,177.12,4323.0
2014-05-21,177.75,177.75,175.5,177.0,385.0
2014-05-22,176.0,177.5,175.5,177.5,2295.0
2014-05-23,176.25,177.18,176.25,177.0,0.0
2014-05-27,178.75,179.0,174.25,176.67,4169.0
2014-05-28,178.0,178.5,176.92,178.5,379.0
2014-05-29,178.25,179.0,177.5,179.0,548.0
2014-05-30,177.75,182.5,177.5,178.25,36284.0
2014-06-02,180.75,181.0,178.0,179.75,6618.0
2014-06-03,178.5,183.0,178.25,179.25,30063.0
2014-06-04,179.5,182.68,179.5,180.75,543.0
2014-06-05,179.25,180.38,179.25,179.5,2076.0
2014-06-06,179.5,182.5,179.25,179.25,1268.0
2014-06-09,179.0,181.45,179.0,179.0,6720.0
2014-06-10,179.0,179.98,179.0,179.0,12544.0
2014-06-11,178.75,182.25,178.5,178.5,428.0
2014-06-12,183.5,183.5,178.5,178.5,4057.0
2014-06-13,178.75,178.75,178.0,178.25,6049.0
2014-06-16,181.5,181.5,177.87,180.0,4590.0
2014-06-17,178.75,179.06,176.0,176.0,2212.0
2014-06-18,176.0,178.1,175.75,175.75,10705.0
2014-06-19,178.0,178.0,178.0,178.0,33062.0
2014-06-20,176.25,178.5,176.0,176.0,18050.0
2014-06-23,176.5,177.88,175.5,176.63,40915.0
2014-06-24,176.5,177.0,174.32,175.25,2916.0
2014-06-25,173.5,176.75,173.0,174.53,9190.0
2014-06-26,171.5,175.2,171.5,174.79,837.0
2014-06-27,171.75,176.25,171.61,173.25,1221.0
2014-06-30,171.25,175.76,171.25,175.25,44242.0
2014-07-01,177.0,177.37,176.16,177.25,26133.0
2014-07-02,177.25,178.3,177.0,177.0,4788.0
2014-07-03,177.25,178.36,177.0,177.0,1654.0
2014-07-04,180.0,180.75,176.41,178.79,5031.0
2014-07-07,181.75,181.75,176.5,176.5,2300.0
2014-07-08,177.0,178.12,176.75,178.0,20121.0
2014-07-09,176.75,177.69,176.75,176.75,30.0
2014-07-10,177.25,177.69,176.5,177.25,17.0
2014-07-11,178.0,179.11,177.4,179.11,8898.0
2014-07-14,179.0,181.0,178.05,180.5,194.0
2014-07-15,181.5,182.61,180.72,182.25,554.0
2014-07-16,181.5,183.0,179.25,183.0,1808.0
2014-07-17,181.5,182.52,179.42,179.5,680.0
2014-07-18,181.75,181.75,178.56,181.75,9.0
2014-07-21,182.0,182.0,179.75,181.0,1775.0
2014-07-22,180.0,183.0,180.0,183.0,1952.0
2014-07-23,180.5,182.55,180.0,180.5,2212.0
2014-07-24,183.0,183.0,182.45,183.0,55.0
2014-07-25,180.5,182.8,180.4,180.5,37.0
2014-07-28,181.0,185.0,180.0,180.0,17882.0
2014-07-29,184.75,185.0,182.34,185.0,7283.0
2014-07-30,181.75,186.0,181.75,186.0,1751.0
2014-07-31,184.5,186.0,183.25,185.93,23371.0
2014-08-01,181.75,182.77,180.5,180.75,9569.0
2014-08-04,181.0,182.98,179.89,182.0,38594.0
2014-08-05,180.0,185.0,180.0,180.25,11321.0
2014-08-06,180.0,181.0,178.45,181.0,24624.0
2014-08-07,180.0,180.0,178.5,180.0,21949.0
2014-08-08,178.0,179.25,176.0,176.0,23402.0
2014-08-11,180.0,182.0,178.0,180.5,8517.0
2014-08-12,180.0,181.0,179.0,181.0,21484.0
2014-08-13,180.0,183.75,180.0,183.75,21233.0
2014-08-14,183.5,184.0,182.58,184.0,2544.0
2014-08-15,183.75,184.75,183.25,183.75,992.0
2014-08-18,181.5,185.0,181.5,185.0,13939.0
2014-08-19,187.0,189.04,187.0,189.04,16197.0
2014-08-20,188.0,190.45,186.0,188.0,21637.0
2014-08-21,188.25,189.25,188.0,188.0,4138.0
2014-08-22,188.25,190.45,186.0,186.0,18344.0
2014-08-26,190.75,190.75,186.0,186.0,2066.0
2014-08-27,189.5,190.11,187.0,189.0,3147.0
2014-08-28,189.0,190.5,188.0,188.75,19221.0
2014-08-29,188.0,189.78,187.69,189.11,1574.0
2014-09-01,187.0,190.8,187.0,188.3,58.0
2014-09-02,188.0,189.81,186.62,188.0,39.0
2014-09-03,191.0,192.29,189.34,192.0,5000.0
2014-09-04,192.0,192.75,192.0,192.15,14273.0
2014-09-05,193.75,194.0,192.0,192.8,578.0
2014-09-08,194.0,196.3,194.0,194.4,2672.0
2014-09-09,196.75,196.75,192.5,194.0,14679.0
2014-09-10,196.25,196.25,193.5,194.0,26887.0
2014-09-11,194.0,194.99,191.5,193.0,12509.0
2014-09-12,193.25,194.6,193.0,193.0,64.0
2014-09-15,193.0,193.25,191.25,191.5,7238.0
2014-09-16,192.75,192.75,191.5,191.5,2577.0
2014-09-17,191.5,192.6,191.5,191.5,40.0
2014-09-18,191.5,191.61,187.0,187.0,51556.0
2014-09-19,190.0,190.0,187.12,188.75,4100.0
2014-09-22,190.0,190.0,185.97,189.5,1834.0
2014-09-23,187.0,188.35,187.0,188.3,737.0
2014-09-24,190.0,190.0,187.0,187.0,2209.0
2014-09-25,190.0,190.0,186.83,188.0,1240.0
2014-09-26,188.5,189.0,186.63,186.75,4621.0
2014-09-29,186.0,187.5,186.0,186.98,3662.0
2014-09-30,186.0,186.97,186.0,186.97,57.0
2014-10-01,186.0,187.1,184.0,184.0,17467.0
2014-10-02,184.0,184.86,184.0,184.0,71.0
2014-10-03,186.25,187.12,185.0,185.0,11900.0
2014-10-06,186.5,188.0,186.34,188.0,22023.0
2014-10-07,187.5,188.19,186.31,186.31,1742.0
2014-10-08,185.25,187.2,184.92,185.25,83.0
2014-10-09,189.0,189.0,186.0,186.0,86.0
2014-10-10,185.0,185.85,183.25,183.75,15660.0
2014-10-13,183.0,184.75,182.75,182.75,33947.0
2014-10-14,182.25,184.35,182.25,184.0,22004.0
2014-10-15,186.0,186.0,184.0,185.0,22409.0
2014-10-16,186.0,186.0,179.37,182.5,47060.0
2014-10-17,184.5,186.0,184.2,185.0,5017.0
2014-10-20,185.25,188.5,185.25,186.5,2769.0
2014-10-21,186.25,187.5,185.0,187.5,3467.0
2014-10-22,188.0,188.21,186.15,187.38,31289.0
2014-10-23,186.75,187.35,186.75,187.13,54.0
2014-10-24,186.0,187.11,186.0,187.11,406.0
2014-10-27,189.0,189.0,186.48,187.0,17898.0
2014-10-28,190.75,190.75,187.1,188.0,3612.0
2014-10-29,189.0,189.88,188.0,188.0,6912.0
2014-10-30,188.25,188.46,187.0,187.0,47208.0
2014-10-31,189.75,190.71,188.25,190.38,30953.0
2014-11-03,189.25,190.5,188.0,189.69,8216.0
2014-11-04,188.25,191.0,187.5,187.5,16756.0
2014-11-05,191.75,191.75,188.74,189.5,5754.0
2014-11-06,189.25,189.91,189.0,189.0,1615.0
2014-11-07,191.0,191.0,190.0,191.0,12576.0
2014-11-10,190.5,191.66,190.5,190.75,580.0
2014-11-11,191.0,191.74,190.0,190.0,616.0
2014-11-12,190.25,192.0,190.0,190.25,6514.0
2014-11-13,190.5,195.0,190.5,195.0,48996.0
2014-11-14,195.0,196.51,194.0,194.0,22256.0
2014-11-17,194.0,195.1,192.25,195.1,2301.0
2014-11-18,195.0,195.51,195.0,195.0,7909.0
2014-11-19,195.25,196.02,193.0,193.0,8324.0
2014-11-20,193.5,193.84,193.0,193.5,1694.0
2014-11-21,195.75,197.0,195.25,197.0,4214.0
2014-11-24,197.5,197.5,193.5,195.0,3003.0
2014-11-25,198.75,198.75,193.5,195.05,232.0
2014-11-26,194.25,194.32,193.0,194.22,12024.0
2014-11-27,193.5,195.23,193.06,194.0,2513.0
2014-11-28,194.0,197.0,193.0,197.0,1528.0
2014-12-01,191.0,192.12,189.0,189.75,18253.0
2014-12-02,194.25,195.25,191.11,195.25,5348.0
2014-12-03,194.25,194.56,194.17,194.32,504.0
2014-12-04,194.0,194.75,193.5,194.75,8035.0
2014-12-05,194.75,195.0,194.0,194.75,172.0
2014-12-08,192.5,193.75,192.5,193.5,15951.0
2014-12-09,192.0,193.12,191.0,191.0,15031.0
2014-12-10,193.25,193.5,189.25,193.5,788.0
2014-12-11,188.25,191.1,187.0,187.0,5413.0
2014-12-12,187.25,187.29,187.0,187.0,436.0
2014-12-15,189.75,189.75,184.29,184.5,977.0
2014-12-16,188.0,188.5,184.0,184.0,5916.0
2014-12-17,184.5,186.9,184.25,184.25,8469.0
2014-12-18,185.25,189.0,185.0,189.0,11818.0
2014-12-19,189.5,191.6,188.55,191.5,20873.0
2014-12-22,195.0,195.0,189.75,193.25,10439.0
2014-12-23,190.5,192.31,189.5,189.5,16350.0
2014-12-24,194.17,194.17,190.35,190.35,0.0
2014-12-29,193.64,194.48,191.05,192.69,0.0
2014-12-30,193.75,195.0,190.5,195.0,942.0
2014-12-31,193.0,194.8,193.0,194.8,1076.0
2015-01-05,190.25,193.88,190.25,192.0,254.0
2015-01-06,193.75,195.0,191.5,195.0,491.0
2015-01-07,192.0,196.0,191.5,196.0,7836.0
2015-01-08,199.0,199.0,194.92,199.0,5000.0
2015-01-09,200.0,202.25,198.34,202.25,43349.0
2015-01-12,202.0,202.0,200.19,201.75,180.0
2015-01-13,202.5,202.5,200.9,202.5,65.0
2015-01-14,198.0,200.7,198.0,199.0,5984.0
2015-01-15,198.25,202.48,198.0,202.48,16806.0
2015-01-16,201.0,201.8,200.0,200.0,6098.0
2015-01-19,198.0,202.75,197.25,197.25,15273.0
2015-01-20,203.75,203.75,199.32,203.25,1897.0
2015-01-21,199.0,206.0,199.0,206.0,3413.0
2015-01-22,201.61,204.58,201.61,204.5,0.0
2015-01-23,208.0,210.0,208.0,210.0,5143.0
2015-01-26,205.0,209.25,205.0,205.0,24764.0
2015-01-27,209.75,209.75,205.0,205.0,4262.0
2015-01-28,206.0,208.0,204.81,208.0,13993.0
2015-01-29,209.25,209.25,207.6,208.49,0.0
2015-01-30,209.25,209.51,207.0,207.0,35710.0
2015-02-02,207.0,208.18,206.5,206.5,9622.0
2015-02-03,209.5,212.75,207.0,208.5,11179.0
2015-02-04,208.75,213.25,208.75,211.0,8348.0
2015-02-05,213.25,213.25,208.0,208.0,1313.0
2015-02-06,213.25,213.5,208.38,210.0,5402.0
2015-02-09,207.25,209.5,206.0,206.0,4553.0
2015-02-10,205.25,207.03,201.5,205.65,25330.0
2015-02-11,201.75,205.18,201.5,204.5,13489.0
2015-02-12,204.0,204.16,203.3,204.0,1187.0
2015-02-13,207.25,207.75,207.0,207.01,4125.0
2015-02-16,209.75,209.75,207.0,207.0,57295.0
2015-02-17,207.0,209.0,205.04,208.0,33453.0
2015-02-18,203.25,206.04,203.0,203.0,1175.0
2015-02-19,205.25,207.6,203.5,206.0,2997.0
2015-02-20,208.75,208.75,203.5,207.0,7550.0
2015-02-23,208.75,208.75,207.0,207.0,5332.0
2015-02-24,206.5,208.4,205.25,207.0,17703.0
2015-02-25,209.0,210.5,207.25,210.0,23390.0
2015-02-26,210.0,212.44,209.88,210.5,29283.0
2015-02-27,210.0,212.36,208.75,211.12,2869.0
2015-03-02,210.0,212.0,210.0,210.0,9124.0
2015-03-03,209.75,212.75,209.5,210.0,14192.0
2015-03-04,210.0,214.0,210.0,211.0,4223.0
2015-03-05,213.75,213.75,210.0,211.08,780.0
2015-03-06,211.0,214.0,211.0,214.0,5883.0
2015-03-09,212.0,214.22,212.0,212.28,213.0
2015-03-10,213.0,214.25,212.94,213.0,10529.0
2015-03-11,214.5,214.5,212.52,214.0,510.0
2015-03-12,216.0,216.59,213.28,216.0,177.0
2015-03-13,219.5,219.5,216.0,216.0,207.0
2015-03-16,216.0,221.0,215.25,216.0,11355.0
2015-03-17,216.0,219.38,215.0,215.0,202.0
2015-03-18,216.0,218.75,216.0,217.0,5310.0
2015-03-19,217.0,221.0,217.0,218.0,29155.0
2015-03-20,221.25,222.75,219.02,220.9,10295.0
2015-03-23,223.25,224.0,219.0,223.25,5232.0
2015-03-24,219.25,223.12,217.0,217.0,25531.0
2015-03-25,221.5,223.25,217.0,217.28,10247.0
2015-03-26,216.25,217.88,215.25,215.25,13386.0
2015-03-27,215.25,217.32,214.0,214.0,11042.0
2015-03-30,214.25,216.75,214.0,214.25,19376.0
2015-03-31,214.25,217.5,214.25,215.0,30408.0
2015-04-01,215.0,216.66,214.5,216.5,7366.0
2015-04-02,214.36,216.52,214.25,216.52,0.0
2015-04-07,218.0,218.0,215.85,215.87,0.0
2015-04-08,216.25,220.3,216.0,220.3,30956.0
2015-04-09,218.0,218.0,216.62,217.39,1.0
2015-04-10,220.75,220.75,216.0,216.0,9612.0
2015-04-13,217.75,221.68,217.75,218.0,33971.0
2015-04-14,218.0,221.75,215.0,218.0,29453.0
2015-04-15,217.0,219.75,215.0,216.55,105426.0
2015-04-16,216.28,218.98,216.28,218.98,0.0
2015-04-17,217.32,217.54,216.52,217.28,0.0
2015-04-20,215.5,216.25,213.0,213.0,28789.0
2015-04-21,216.0,219.0,216.0,217.5,107387.0
2015-04-22,217.25,218.8,217.0,217.25,13191.0
2015-04-23,218.0,219.05,216.0,216.0,25278.0
2015-04-24,216.0,217.4,214.0,214.0,13204.0
2015-04-27,217.0,218.0,215.05,216.94,16088.0
2015-04-28,216.75,216.75,212.5,212.5,28604.0
2015-04-29,214.0,214.4,212.05,212.8,11122.0
2015-04-30,211.25,212.75,208.75,208.75,34929.0
2015-05-01,208.5,209.74,208.5,209.0,22314.0
2015-05-05,210.0,210.0,208.58,209.25,16371.0
2015-05-06,208.5,210.25,207.25,207.25,22317.0
2015-05-07,206.25,208.21,205.25,205.25,15727.0
2015-05-08,206.5,206.72,205.0,205.0,10077.0
2015-05-11,207.0,207.0,206.38,206.75,45.0
2015-05-12,206.0,206.71,201.19,203.0,20825.0
2015-05-13,203.0,203.0,200.51,200.51,10642.0
2015-05-14,201.0,201.82,200.69,201.45,10000.0
2015-05-15,202.0,202.0,200.25,201.5,273.0
2015-05-18,202.0,202.0,198.89,200.0,22596.0
2015-05-19,200.5,203.89,200.25,203.0,11593.0
2015-05-20,205.0,205.0,203.18,203.25,11070.0
2015-05-21,204.0,204.89,204.0,204.0,4814.0
2015-05-22,205.5,205.56,205.5,205.56,1134.0
2015-05-26,206.0,207.0,205.0,207.0,19674.0
2015-05-27,205.75,206.86,205.5,205.5,4212.0
2015-05-28,205.5,205.5,203.63,204.5,20339.0
2015-05-29,203.75,205.0,203.75,205.0,10854.0
2015-06-01,205.25,206.18,204.02,205.0,10855.0
2015-06-02,205.25,205.25,203.0,204.5,1537.0
2015-06-03,203.0,205.17,203.0,204.5,748.0
2015-06-04,203.75,205.09,203.5,204.25,2044.0
2015-06-05,205.5,205.5,203.5,203.5,1244.0
2015-06-08,203.5,204.5,203.0,203.0,10964.0
2015-06-09,202.59,202.59,200.94,200.94,0.0
2015-06-10,202.5,202.5,200.0,200.0,8606.0
2015-06-11,202.5,209.0,200.25,202.5,52668.0
2015-06-12,203.5,206.0,202.25,206.0,5224.0
2015-06-15,206.75,206.75,200.0,200.0,348.0
2015-06-16,203.5,203.5,200.0,200.1,2500.0
2015-06-17,199.75,202.1,197.0,198.5,22571.0
2015-06-18,199.0,199.09,197.0,197.0,132.0
2015-06-19,199.0,199.0,197.0,198.0,5900.0
2015-06-22,199.0,199.25,196.75,199.25,20596.0
2015-06-23,199.0,199.0,197.25,198.5,296.0
2015-06-24,197.25,198.72,196.75,196.75,8326.0
2015-06-25,197.0,200.0,196.78,198.0,8589.0
2015-06-26,196.5,199.0,195.0,199.0,15933.0
2015-06-29,195.0,196.44,192.33,196.44,99.0
2015-06-30,192.0,197.5,192.0,194.5,2105.0
2015-07-01,196.0,199.44,196.0,196.0,224.0
2015-07-02,197.25,200.6,197.25,197.99,24.0
2015-07-03,198.0,200.4,195.55,198.0,1044.0
2015-07-06,193.0,196.5,192.25,195.96,4182.0
2015-07-07,192.0,196.5,192.0,192.55,2636.0
2015-07-08,188.0,192.94,188.0,190.0,13928.0
2015-07-09,192.0,195.5,191.52,192.0,3000.0
2015-07-10,193.0,203.0,193.0,197.78,53224.0
2015-07-13,200.0,203.0,197.72,203.0,2693.0
2015-07-14,197.5,201.0,197.5,197.55,5000.0
2015-07-15,197.0,200.0,195.5,199.0,168.0
2015-07-16,198.75,199.54,196.0,199.54,11985.0
2015-07-17,196.0,200.28,196.0,196.0,2069.0
2015-07-20,196.0,200.0,196.0,196.0,8269.0
2015-07-21,197.0,198.92,196.0,198.5,4443.0
2015-07-22,195.0,197.92,195.0,195.25,2299.0
2015-07-23,195.5,199.0,195.04,195.5,69.0
2015-07-24,195.0,198.16,194.0,194.0,10513.0
2015-07-27,193.0,194.25,192.0,194.17,10168.0
2015-07-28,192.0,192.35,189.5,192.0,33134.0
2015-07-29,191.5,193.6,191.5,191.74,1500.0
2015-07-30,191.5,194.2,191.0,191.0,5260.0
2015-07-31,191.0,194.02,191.0,191.0,3459.0
2015-08-03,191.45,194.38,191.42,194.02,0.0
2015-08-04,195.5,196.5,191.58,195.75,26136.0
2015-08-05,192.25,195.25,192.0,194.81,12085.0
2015-08-06,192.0,195.19,192.0,192.0,7050.0
2015-08-07,193.0,197.0,192.5,194.35,5629.0
2015-08-10,195.5,196.38,193.45,195.5,15.0
2015-08-11,193.0,195.0,192.5,193.99,10273.0
2015-08-12,190.5,194.28,189.0,191.48,22986.0
2015-08-13,189.5,193.06,189.5,193.06,964.0
2015-08-14,189.5,191.0,188.0,188.0,22510.0
2015-08-17,188.0,190.0,187.75,187.88,79928.0
2015-08-18,186.5,186.52,182.6,185.0,33204.0
2015-08-19,186.5,186.5,181.75,183.21,53.0
2015-08-20,180.0,182.58,180.0,182.58,0.0
2015-08-21,180.0,180.0,173.0,173.75,33490.0
2015-08-24,169.0,170.0,164.0,171.75,105689.0
2015-08-25,163.25,176.45,163.25,171.25,7849.0
2015-08-26,170.0,174.21,170.0,170.25,9728.0
2015-08-27,175.0,180.19,175.0,180.19,17103.0
2015-08-28,180.0,180.88,177.5,179.0,59095.0
2015-09-01,176.5,177.0,172.5,177.0,70313.0
2015-09-02,178.0,178.33,176.0,178.0,33522.0
2015-09-03,179.0,181.12,179.0,181.12,42276.0
2015-09-04,178.5,180.19,175.0,175.0,53596.0
2015-09-07,177.0,178.89,176.0,178.25,7584.0
2015-09-08,179.0,181.5,178.75,180.48,31974.0
2015-09-09,185.0,187.0,185.0,186.0,37692.0
2015-09-10,187.0,187.0,184.0,184.0,1879.0
2015-09-11,186.2,186.22,184.36,186.22,0.0
2015-09-14,183.0,186.0,181.0,181.5,18614.0
2015-09-15,184.0,185.0,181.0,182.5,16651.0
2015-09-16,185.0,185.47,182.0,184.66,5584.0
2015-09-17,185.25,185.25,184.84,185.25,803.0
2015-09-18,184.0,184.0,179.5,179.5,34849.0
2015-09-21,180.0,182.5,180.0,180.25,24.0
2015-09-22,178.5,182.25,178.5,179.05,7733.0
2015-09-23,178.5,180.0,178.5,178.5,3823.0
2015-09-24,179.0,180.7,177.0,177.75,15378.0
2015-09-25,180.0,180.0,177.75,177.75,23216.0
2015-09-28,178.25,178.25,176.56,176.94,1111.0
2015-09-29,174.75,175.5,173.5,174.4,19116.0
2015-09-30,176.0,178.55,176.0,178.0,18761.0
2015-10-01,180.0,182.24,180.0,181.0,55332.0
2015-10-02,179.5,182.64,178.28,179.25,12045.0
2015-10-05,180.0,184.5,180.0,184.25,18353.0
2015-10-06,180.5,185.0,180.5,183.0,18572.0
2015-10-07,187.0,188.75,183.44,188.75,99017.0
2015-10-08,188.1,188.1,185.0,187.85,0.0
2015-10-09,186.62,188.99,186.18,187.5,0.0
2015-10-12,185.5,190.0,185.5,188.83,5350.0
2015-10-13,185.72,189.5,185.5,185.5,0.0
2015-10-14,185.0,189.28,185.0,185.44,9.0
2015-10-15,190.0,190.0,186.5,187.0,18032.0
2015-10-16,187.75,188.92,187.0,188.42,0.0
2015-10-19,189.83,189.83,187.05,189.58,0.0
2015-10-20,191.5,191.5,186.5,187.47,4151.0
2015-10-21,186.5,190.58,186.5,186.5,1.0
2015-10-22,186.5,190.25,186.5,189.06,1341.0
2015-10-23,190.75,190.75,187.94,188.88,12239.0
2015-10-26,189.5,191.25,188.98,191.0,21366.0
2015-10-27,191.0,191.0,188.44,190.0,79831.0
2015-10-28,190.0,190.25,188.0,190.0,36516.0
2015-10-29,188.5,190.39,188.05,189.0,6773.0
2015-10-30,189.89,189.89,187.68,187.68,0.0
2015-11-02,190.0,190.12,187.5,190.0,3000.0
2015-11-03,190.0,191.5,188.86,190.81,7366.0
2015-11-04,192.17,192.48,191.52,192.12,0.0
2015-11-05,192.5,192.5,189.25,189.25,5896.0
2015-11-06,192.0,192.74,192.0,192.56,1629.0
2015-11-09,189.25,192.1,188.46,189.25,2296.0
2015-11-10,188.0,190.2,188.0,188.0,32530.0
2015-11-11,187.25,189.73,187.25,188.0,9134.0
2015-11-12,189.0,191.03,187.8,189.84,3253.0
2015-11-13,186.0,187.78,185.06,186.0,5000.0
2015-11-16,184.0,187.0,183.0,186.75,26921.0
2015-11-17,186.0,188.12,186.0,186.5,0.0
2015-11-18,189.0,189.0,186.0,188.0,1.0
2015-11-19,186.72,188.75,186.72,188.75,0.0
2015-11-20,189.0,190.56,188.4,190.56,10000.0
2015-11-23,190.0,191.0,190.0,190.0,1247.0
2015-11-24,190.0,190.75,189.0,190.0,124880.0
2015-11-25,189.75,191.5,189.75,191.06,18.0
2015-11-26,191.0,191.4,190.0,191.4,0.0
2015-11-27,191.12,191.31,189.5,190.1,0.0
2015-11-30,189.25,191.25,189.0,190.0,47826.0
2015-12-01,191.5,191.5,189.94,191.5,3309.0
2015-12-02,193.5,193.75,192.0,192.0,63187.0
2015-12-03,193.25,193.25,191.94,192.1,0.0
2015-12-04,188.0,191.31,188.0,191.31,1532.0
2015-12-07,190.75,191.64,188.0,189.5,47452.0
2015-12-08,188.5,191.25,188.5,191.25,3464.0
2015-12-09,191.0,191.0,188.0,191.0,2995.0
2015-12-10,187.5,189.0,187.5,188.84,13561.0
2015-12-11,188.0,188.0,186.75,186.75,9271.0
2015-12-14,186.25,188.0,186.25,187.0,20117.0
2015-12-15,188.0,188.0,186.5,188.0,3261.0
2015-12-16,190.0,190.0,188.24,189.5,2791.0
2015-12-18,187.25,192.0,187.25,190.0,80026.0
2015-12-21,188.5,191.0,188.5,190.0,7012.0
2015-12-22,188.0,191.57,188.0,191.0,6301.0
2015-12-23,189.0,192.0,189.0,191.75,4153.0
2015-12-24,189.5,191.0,189.25,189.25,26334.0
2015-12-29,188.5,191.0,188.5,190.0,29751.0
2015-12-30,188.5,190.25,188.5,190.25,14403.0
2015-12-31,188.25,190.5,188.25,190.0,29191.0
2016-01-04,187.0,187.0,183.5,187.0,70920.0
2016-01-05,186.0,188.0,185.63,187.0,18958.0
2016-01-06,184.5,189.0,184.5,188.0,39169.0
2016-01-07,182.0,186.0,182.0,184.5,33362.0
2016-01-08,186.0,186.75,186.0,186.25,8712.0
2016-01-11,186.0,186.0,182.44,186.0,45.0
2016-01-12,185.0,187.0,182.12,184.0,6510.0
2016-01-13,187.0,191.0,187.0,189.75,22973.0
2016-01-14,186.5,189.0,186.5,187.0,22139.0
2016-01-15,186.75,188.96,185.66,187.0,135758.0
2016-01-18,187.0,187.0,184.08,187.0,4.0
2016-01-19,185.5,191.96,185.5,188.75,41240.0
2016-01-20,186.0,186.5,183.66,185.5,5911.0
2016-01-21,185.25,188.0,181.72,184.0,27475.0
2016-01-22,187.82,192.0,187.82,192.0,0.0
2016-01-25,192.0,192.0,188.0,191.96,47.0
2016-01-26,183.5,189.56,183.5,186.12,7343.0
2016-01-27,189.0,191.0,186.75,189.0,26494.0
2016-01-28,191.0,193.62,189.5,191.5,19489.0
2016-01-29,194.0,199.5,192.0,199.5,5998.0
2016-02-01,197.0,199.5,196.52,197.0,52.0
2016-02-02,196.0,197.97,194.75,195.25,144249.0
2016-02-03,191.0,194.0,191.0,192.0,60397.0
2016-02-04,194.0,196.0,193.55,194.0,11194.0
2016-02-05,194.0,195.48,194.0,194.0,444.0
2016-02-08,191.0,194.62,190.5,192.0,21300.0
2016-02-09,190.5,192.0,187.5,188.5,7126.0
2016-02-10,188.75,192.45,187.5,187.5,7.0
2016-02-11,186.0,189.96,186.0,186.75,10000.0
2016-02-12,185.5,188.42,185.0,185.0,16351.0
2016-02-15,188.0,190.01,188.0,188.0,20057.0
2016-02-16,193.0,193.0,188.75,191.48,11134.0
2016-02-17,191.75,193.0,188.9,189.75,39737.0
2016-02-18,193.0,194.5,193.0,193.16,10500.0
2016-02-19,194.5,194.5,193.79,194.5,1841.0
2016-02-22,194.5,198.0,193.11,198.0,31002.0
2016-02-23,194.0,198.0,193.54,193.54,10924.0
2016-02-24,197.0,197.0,193.05,197.0,1459.0
2016-02-25,197.0,197.0,194.65,197.0,6840.0
2016-02-26,196.75,199.0,195.0,199.0,14303.0
2016-02-29,195.0,200.0,195.0,199.5,9528.0
2016-03-01,200.0,202.5,198.5,202.5,24140.0
2016-03-02,203.0,205.0,201.5,203.0,34582.0
2016-03-03,203.0,204.5,202.0,204.0,26976.0
2016-03-04,205.0,205.5,201.75,205.5,3451.0
2016-03-07,206.0,206.0,201.75,205.71,747.0
2016-03-08,200.5,203.0,200.5,202.0,12567.0
2016-03-09,202.0,205.0,200.0,205.0,24461.0
2016-03-10,205.0,205.0,198.5,200.0,504.0
2016-03-11,201.0,201.0,199.0,201.0,10552.0
2016-03-14,201.0,203.0,200.0,200.0,21124.0
2016-03-15,202.0,202.0,200.11,201.5,11042.0
2016-03-16,202.0,205.0,201.37,204.0,47317.0
2016-03-17,206.0,207.0,203.6,204.0,38765.0
2016-03-18,207.0,207.5,204.75,207.5,7709.0
2016-03-21,207.0,207.0,204.78,207.0,423.0
2016-03-22,208.0,209.0,204.8,206.72,15480.0
2016-03-23,208.0,210.0,205.0,210.0,15684.0
2016-03-24,205.0,207.5,202.25,202.25,2185.0
2016-03-29,208.0,208.0,201.56,202.0,2378.0
2016-03-30,202.25,207.0,202.25,205.25,2750.0
2016-03-31,204.0,206.0,202.29,203.75,7353.0
2016-04-01,202.75,204.8,202.5,204.5,8098.0
2016-04-04,204.0,207.6,202.75,206.0,12497.0
2016-04-05,202.9,206.0,202.28,202.31,0.0
2016-04-06,199.0,205.0,199.0,201.75,547.0
2016-04-07,202.0,202.96,198.0,198.0,1383.0
2016-04-08,202.0,204.5,202.0,203.5,31742.0
2016-04-11,202.5,205.0,202.06,202.5,221.0
2016-04-12,204.0,205.0,201.9,204.0,4512.0
2016-04-13,206.0,208.0,204.75,204.75,0.0
2016-04-14,207.0,208.75,205.67,208.0,2000.0
2016-04-15,209.0,209.1,206.08,207.83,984.0
2016-04-18,203.5,205.5,203.5,205.5,3001.0
2016-04-19,206.5,210.9,203.0,210.0,44236.0
2016-04-20,206.0,211.0,206.0,210.58,5588.0
2016-04-21,211.0,212.0,209.8,210.25,11372.0
2016-04-22,212.0,212.0,209.0,212.0,1642.0
2016-04-25,208.0,211.04,207.06,208.0,11301.0
2016-04-26,206.5,207.34,204.74,207.0,8713.0
2016-04-27,205.5,206.92,205.42,205.7,97.0
2016-04-28,205.0,206.2,204.0,205.0,8347.0
2016-04-29,204.0,205.0,204.0,204.74,1842.0
2016-05-03,203.0,204.74,202.5,203.5,9158.0
2016-05-04,202.12,203.6,202.12,203.6,0.0
2016-05-05,201.5,203.25,201.2,202.1,3179.0
2016-05-06,202.65,202.65,202.6,202.6,0.0
2016-05-09,202.6,203.5,201.3,202.21,0.0
2016-05-10,205.5,205.5,200.0,200.25,2812.0
2016-05-11,204.0,204.0,200.49,204.0,1072.0
2016-05-12,205.0,205.0,200.25,203.0,4364.0
2016-05-13,203.75,203.75,200.36,203.75,88.0
2016-05-16,204.0,204.89,202.2,204.0,591.0
2016-05-17,204.31,205.0,204.11,204.62,0.0
2016-05-18,204.5,206.0,200.11,202.75,16524.0
2016-05-19,200.0,201.48,199.25,201.48,892.0
2016-05-20,203.0,203.0,199.36,201.5,217.0
2016-05-23,201.0,201.64,199.25,201.25,892.0
2016-05-24,199.0,202.0,197.25,197.25,5816.0
2016-05-25,201.0,203.0,200.25,202.0,57988.0
2016-05-26,202.5,203.0,202.0,203.0,1342.0
2016-05-27,203.0,203.0,200.0,203.0,13613.0
2016-05-31,203.0,205.0,200.3,205.0,12339.0
2016-06-01,204.0,207.0,204.0,207.0,1327.0
2016-06-02,204.0,206.0,204.0,206.0,10038.0
2016-06-03,205.0,205.38,202.25,205.38,9.0
2016-06-06,207.0,208.0,207.0,207.0,16972.0
2016-06-07,209.0,209.0,205.0,206.0,20083.0
2016-06-08,208.0,209.0,207.9,209.0,3387.0
2016-06-09,211.5,212.5,206.25,212.5,5495.0
2016-06-10,209.0,209.0,207.49,209.0,31.0
2016-06-13,203.5,209.0,203.5,204.25,151.0
2016-06-14,204.25,205.8,201.0,201.0,11873.0
2016-06-15,200.25,206.5,200.25,202.5,13359.0
2016-06-16,203.0,203.0,200.0,200.0,6501.0
2016-06-17,200.0,203.0,200.0,201.5,12293.0
2016-06-20,207.0,209.0,203.0,203.35,38852.0
2016-06-21,204.75,204.8,202.5,204.75,19301.0
2016-06-22,202.5,204.8,202.5,202.5,199.0
2016-06-23,202.5,206.0,202.5,203.0,14203.0
2016-06-24,198.0,205.25,195.5,203.0,44550.0
2016-06-27,204.0,207.0,202.0,202.0,5963.0
2016-06-28,204.0,214.75,203.44,210.25,95056.0
2016-06-29,214.0,220.5,213.94,220.25,487.0
2016-06-30,215.0,220.5,213.5,216.0,11061.0
2016-07-01,216.5,221.0,216.5,221.0,3418.0
2016-07-04,221.1,221.1,217.75,221.05,0.0
2016-07-05,218.0,220.62,218.0,218.0,1871.0
2016-07-06,218.04,221.12,218.0,218.04,0.0
2016-07-07,218.25,221.61,218.25,218.25,1.0
2016-07-08,219.0,222.26,216.0,216.0,1399.0
2016-07-11,223.0,226.0,223.0,226.0,51550.0
2016-07-12,226.0,228.0,226.0,226.0,15900.0
2016-07-13,225.0,228.0,224.3,227.9,4.0
2016-07-14,230.5,232.95,228.5,229.19,4300.0
2016-07-15,225.0,232.46,224.0,232.46,16291.0
2016-07-18,228.0,231.94,227.0,228.0,2240.0
2016-07-19,226.75,233.0,226.0,227.0,5419.0
2016-07-20,231.0,233.44,228.48,229.5,5419.0
2016-07-21,232.25,233.42,226.3,229.8,53.0
2016-07-22,229.4,233.0,228.0,230.43,0.0
2016-07-25,234.0,234.5,229.75,232.8,4900.0
2016-07-26,237.0,238.0,235.8,236.92,4597.0
2016-07-27,233.0,237.5,233.0,233.0,405.0
2016-07-28,237.0,238.0,234.0,238.0,414.0
2016-07-29,238.0,238.0,235.0,235.95,1929.0
2016-08-01,238.0,238.0,235.5,237.96,2250.0
2016-08-02,235.0,240.0,235.0,235.0,16471.0
2016-08-03,238.5,238.5,234.72,238.5,69.0
2016-08-04,241.0,241.0,236.6,237.43,12327.0
2016-08-05,235.0,239.0,235.0,239.0,2385.0
2016-08-08,239.0,240.0,238.0,240.0,6433.0
2016-08-09,242.0,246.0,242.0,246.0,14944.0
2016-08-10,246.0,247.5,242.64,247.5,6237.0
2016-08-11,248.0,249.94,244.0,244.0,3416.0
2016-08-12,250.0,252.0,248.2,251.5,12887.0
2016-08-15,252.0,252.0,247.25,251.0,5737.0
2016-08-16,252.0,253.0,249.75,251.62,3000.0
2016-08-17,253.0,253.0,247.8,252.95,0.0
2016-08-18,248.0,252.5,246.0,249.0,27613.0
2016-08-19,253.0,257.0,250.0,250.0,13445.0
2016-08-22,250.0,251.62,247.0,248.0,16734.0
2016-08-23,253.0,253.0,248.5,248.5,2803.0
2016-08-24,247.5,251.62,246.0,251.0,14000.0
2016-08-25,252.5,252.5,247.25,251.7,946.0
2016-08-26,247.0,251.7,247.0,249.0,88.0
2016-08-30,253.75,253.75,248.5,249.93,7140.0
2016-08-31,254.0,255.0,249.5,252.5,11435.0
2016-09-01,254.0,255.0,249.75,249.75,5334.0
2016-09-02,254.75,254.75,250.0,254.0,42235.0
2016-09-05,251.0,255.0,246.0,249.0,11772.0
2016-09-06,255.75,255.75,251.0,252.0,1739.0
2016-09-07,251.0,254.09,248.5,248.5,6753.0
2016-09-08,255.5,255.5,248.25,248.25,13501.0
2016-09-09,248.0,251.99,245.0,245.56,40653.0
2016-09-12,243.0,243.0,235.75,236.0,11654.0
2016-09-13,238.0,242.2,238.0,238.0,698.0
2016-09-14,241.75,243.0,238.14,243.0,1037.0
2016-09-15,243.0,245.25,243.0,245.25,13099.0
2016-09-16,245.0,252.75,243.6,250.4,99060.0
2016-09-19,251.0,252.0,250.06,252.0,6295.0
2016-09-20,252.0,255.0,251.48,253.31,3234.0
2016-09-21,250.5,255.0,250.0,254.5,4132.0
2016-09-22,250.5,255.0,250.25,254.22,7737.0
2016-09-23,254.59,255.4,252.88,254.98,0.0
2016-09-26,252.75,254.25,252.0,254.1,0.0
2016-09-27,256.0,256.0,252.0,256.0,984.0
2016-09-28,252.0,255.0,252.0,252.0,351.0
2016-09-29,252.0,255.16,252.0,254.8,62.0
2016-09-30,254.0,255.5,253.0,253.12,30283.0
2016-10-03,255.5,257.0,253.05,257.0,7929.0
2016-10-04,257.0,266.0,255.0,255.3,55095.0
2016-10-05,259.5,264.0,259.5,263.0,13326.0
2016-10-06,263.0,263.7,263.0,263.25,4810.0
2016-10-07,263.0,265.0,263.0,265.0,211.0
2016-10-10,265.5,267.0,263.0,267.0,70064.0
2016-10-11,263.0,265.49,263.0,263.4,231.0
2016-10-12,263.0,265.49,263.0,263.0,1211.0
2016-10-13,263.0,266.0,258.5,265.0,11371.0
2016-10-14,265.0,266.25,265.0,265.0,2459.0
2016-10-17,265.0,266.8,265.0,266.12,3424.0
2016-10-18,267.0,270.0,265.0,267.5,10566.0
2016-10-19,265.0,267.1,264.0,264.0,8623.0
2016-10-20,264.0,266.7,264.0,265.5,2798.0
2016-10-21,265.0,266.8,265.0,266.8,38.0
2016-10-24,266.0,270.5,265.5,267.0,9414.0
2016-10-25,271.0,271.0,267.0,269.0,38.0
2016-10-26,271.0,271.0,266.5,268.95,64.0
2016-10-27,267.44,267.44,264.75,266.5,0.0
2016-10-28,267.0,267.0,264.0,267.0,163.0
2016-10-31,264.0,267.0,262.0,263.32,8581.0
2016-11-01,263.0,267.0,260.0,265.51,6868.0
2016-11-02,264.0,264.0,258.25,262.0,1499.0
2016-11-03,259.0,259.18,254.5,255.5,2363.0
2016-11-04,250.0,254.9,250.0,252.0,3792.0
2016-11-07,258.0,258.0,253.05,257.2,327.0
2016-11-08,253.0,257.49,253.0,253.0,254.0
2016-11-09,250.0,251.25,243.45,245.0,4021.0
2016-11-10,253.0,257.16,250.0,256.0,20402.0
2016-11-11,250.0,251.88,245.93,248.0,35413.0
2016-11-14,248.0,249.64,244.59,248.0,59.0
2016-11-15,248.0,251.25,248.0,248.25,334.0
2016-11-16,248.0,250.6,246.5,247.25,6003.0
2016-11-17,247.25,249.25,247.25,247.25,799.0
2016-11-18,247.25,249.75,247.25,248.0,7379.0
2016-11-21,250.0,250.0,247.25,247.25,2046.0
2016-11-22,249.75,249.75,247.0,249.2,6650.0
2016-11-23,250.0,253.84,247.0,253.5,27511.0
2016-11-24,253.0,254.0,253.0,253.5,2030.0
2016-11-25,254.0,254.0,252.96,253.5,752.0
2016-11-28,253.75,253.75,253.0,253.5,3311.0
2016-11-29,253.0,253.5,250.0,251.0,10952.0
2016-11-30,251.8,251.8,250.0,251.1,0.0
2016-12-01,250.0,250.8,246.0,246.0,13303.0
2016-12-02,245.0,250.8,245.0,247.75,1113.0
2016-12-05,244.0,250.93,244.0,248.2,41.0
2016-12-06,244.0,250.0,242.5,243.25,30797.0
2016-12-07,247.0,248.8,247.0,247.0,561.0
2016-12-08,248.0,250.0,248.0,249.0,822.0
2016-12-09,248.0,249.5,248.0,249.0,812.0
2016-12-12,249.75,249.75,248.0,249.0,699.0
2016-12-13,249.0,249.5,248.0,248.75,2928.0
2016-12-14,248.0,249.38,248.0,248.98,839.0
2016-12-15,248.75,249.1,248.0,248.08,5949.0
2016-12-16,248.0,250.0,244.0,247.0,8168.0
2016-12-19,248.0,249.34,245.62,248.04,2772.0
2016-12-20,248.0,249.78,248.0,249.78,1030.0
2016-12-21,250.0,250.0,248.0,248.2,5860.0
2016-12-22,249.75,249.75,246.5,249.15,9254.0
2016-12-23,246.75,249.39,246.5,246.5,432.0
2016-12-28,250.0,253.5,250.0,253.0,15355.0
2016-12-29,253.0,254.5,253.0,253.5,3989.0
2016-12-30,256.0,256.0,254.02,255.23,362.0
2017-01-03,255.0,257.85,254.06,255.8,13943.0
2017-01-04,258.0,260.0,258.0,259.0,6046.0
2017-01-05,258.0,260.59,258.0,260.0,4044.0
2017-01-06,261.0,262.24,261.0,262.0,3039.0
2017-01-09,262.0,268.5,262.0,267.88,10996.0
2017-01-10,268.5,268.5,266.03,267.0,54765.0
2017-01-11,267.0,269.0,265.29,265.5,39277.0
2017-01-12,267.0,269.0,265.54,268.7,7043.0
2017-01-13,269.0,269.08,265.85,269.0,7158.0
2017-01-16,269.5,271.0,267.12,269.5,3076.0
2017-01-17,270.5,270.5,264.0,265.02,12592.0
2017-01-18,264.0,267.5,264.0,266.75,7793.0
2017-01-19,267.0,267.0,265.0,266.5,1576.0
2017-01-20,266.5,267.5,264.0,264.62,5389.0
2017-01-23,267.0,267.0,264.18,266.75,2826.0
2017-01-24,264.18,267.5,264.18,265.21,0.0
2017-01-25,264.0,267.5,262.0,265.0,11339.0
2017-01-26,265.75,267.95,264.92,265.75,224.0
2017-01-27,266.3,268.4,264.6,266.3,0.0
2017-01-30,268.5,268.5,265.0,265.8,76.0
2017-01-31,267.0,267.0,265.0,267.0,6542.0
2017-02-01,267.5,267.6,264.92,265.0,417.0
2017-02-02,264.0,267.62,264.0,264.0,1730.0
2017-02-03,268.25,268.5,265.35,266.75,7622.0
2017-02-06,270.0,271.88,269.0,269.0,9442.0
2017-02-07,268.0,275.0,266.0,267.08,46857.0
2017-02-08,268.25,271.62,267.33,268.0,1928.0
2017-02-09,267.86,271.5,267.0,271.5,0.0
2017-02-10,272.0,273.0,271.25,273.0,4580.0
2017-02-13,274.67,274.75,272.0,272.0,0.0
2017-02-14,274.75,275.06,272.0,274.9,9255.0
2017-02-15,276.0,276.0,274.5,275.76,2216.0
2017-02-16,275.5,275.88,274.42,275.88,6442.0
2017-02-17,274.5,276.0,274.5,274.5,2309.0
2017-02-20,276.0,276.0,274.5,274.88,2045.0
2017-02-21,278.75,278.75,275.6,277.75,8785.0
2017-02-22,277.5,277.5,274.88,277.3,8381.0
2017-02-23,277.75,277.75,273.0,277.3,15271.0
2017-02-24,276.75,276.75,272.1,276.06,7684.0
2017-02-27,272.0,277.75,272.0,272.5,5618.0
2017-02-28,278.0,278.0,274.0,274.4,3863.0
2017-03-01,278.0,280.0,275.0,278.0,3919.0
2017-03-02,279.0,280.0,277.15,280.0,3076.0
2017-03-03,276.0,278.9,276.0,277.5,1176.0
2017-03-06,280.75,280.75,276.52,277.0,838.0
2017-03-07,280.75,282.25,279.75,280.0,22297.0
2017-03-08,279.75,282.25,279.75,281.49,5360.0
2017-03-09,280.5,280.5,277.0,277.0,8854.0
2017-03-10,282.5,282.5,277.25,277.25,57.0
2017-03-13,281.75,281.75,279.0,279.29,41172.0
2017-03-14,282.0,284.1,280.0,280.47,16524.0
2017-03-15,283.75,283.75,280.64,283.75,334.0
2017-03-16,286.0,287.46,282.12,287.0,108367.0
2017-03-17,284.25,287.5,284.25,287.0,8862.0
2017-03-20,287.5,287.5,284.63,286.2,35.0
2017-03-21,287.25,287.28,283.0,286.17,18108.0
2017-03-22,280.0,285.0,280.0,281.0,2517.0
2017-03-23,281.25,285.0,281.0,284.7,11681.0
2017-03-24,282.0,286.5,282.0,286.5,1634.0
2017-03-27,287.0,287.0,282.3,285.0,2563.0
2017-03-28,284.25,287.0,284.25,284.35,1614.0
2017-03-29,284.0,290.0,284.0,289.01,6221.0
2017-03-30,287.25,290.0,284.0,284.35,12919.0
2017-03-31,284.0,287.0,283.5,284.5,11420.0
2017-04-03,288.0,288.75,283.5,286.88,12338.0
2017-04-04,289.0,289.0,285.0,288.75,16727.0
2017-04-05,289.75,289.75,287.8,289.75,2.0
2017-04-06,283.0,284.5,280.0,283.15,5640.0
2017-04-07,283.36,284.51,280.8,283.25,0.0
2017-04-10,280.0,284.95,280.0,281.92,91.0
2017-04-11,282.5,284.25,280.04,282.5,2265.0
2017-04-12,283.5,283.5,279.58,282.5,21047.0
2017-04-13,280.19,284.99,280.0,284.99,0.0
2017-04-18,284.75,284.75,279.8,281.51,55331.0
2017-04-19,280.0,281.0,275.13,277.72,5734.0
2017-04-20,275.25,279.0,275.25,278.63,4689.0
2017-04-21,280.0,282.9,280.0,282.9,10290.0
2017-04-24,284.0,284.5,280.0,280.25,3904.0
2017-04-25,282.5,285.75,282.5,282.5,1.0
2017-04-26,286.0,286.0,283.5,285.5,20186.0
2017-04-27,284.0,286.0,284.0,284.8,162.0
2017-04-28,285.75,286.5,284.0,284.0,16855.0
